# ; 1/2 chord locations of the cross-sections
# ; node  X_coordinate[m]	Y_coordinate[m]	Z_coordinate[m]	Twist[deg.]
1	2.276600e-02	-6.354000e-03	0.000000e+00	-1.559460e+01
2	2.220600e-02	-6.072000e-03	2.040800e-02	-1.559585e+01
3	2.051600e-02	-5.220000e-03	8.161600e-02	-1.559949e+01
4	1.767700e-02	-3.783000e-03	1.835810e-01	-1.560518e+01
5	1.365000e-02	-1.731000e-03	3.262290e-01	-1.561232e+01
6	8.388000e-03	9.700000e-04	5.094600e-01	-1.562011e+01
7	1.829000e-03	4.367000e-03	7.331410e-01	-1.562754e+01
8	-6.100000e-03	8.512000e-03	9.971130e-01	-1.563338e+01
9	-1.547700e-02	1.346200e-02	1.301188e+00	-1.563619e+01
10	-2.639100e-02	1.928000e-02	1.645150e+00	-1.563437e+01
11	-3.893200e-02	2.602600e-02	2.028753e+00	-1.562613e+01
12	-5.319400e-02	3.376100e-02	2.451725e+00	-1.560955e+01
13	-6.926700e-02	4.254200e-02	2.913767e+00	-1.558254e+01
14	-8.723800e-02	5.241800e-02	3.414552e+00	-1.554292e+01
15	-1.071880e-01	6.342700e-02	3.953726e+00	-1.548841e+01
16	-1.291830e-01	7.559300e-02	4.530910e+00	-1.541665e+01
17	-1.532780e-01	8.892500e-02	5.145698e+00	-1.532522e+01
18	-1.795080e-01	1.034110e-01	5.797660e+00	-1.521169e+01
19	-2.078860e-01	1.190140e-01	6.486340e+00	-1.507361e+01
20	-2.384010e-01	1.356690e-01	7.211257e+00	-1.490855e+01
21	-2.710120e-01	1.532830e-01	7.971910e+00	-1.471413e+01
22	-3.056430e-01	1.717270e-01	8.767770e+00	-1.448802e+01
23	-3.421980e-01	1.908420e-01	9.598287e+00	-1.422842e+01
24	-3.805810e-01	2.104610e-01	1.046289e+01	-1.393511e+01
25	-4.206740e-01	2.303870e-01	1.136098e+01	-1.360872e+01
26	-4.623280e-01	2.503880e-01	1.229195e+01	-1.325059e+01
27	-5.053640e-01	2.701950e-01	1.325516e+01	-1.286282e+01
28	-5.495650e-01	2.895020e-01	1.424995e+01	-1.244832e+01
29	-5.946380e-01	3.079780e-01	1.527565e+01	-1.201085e+01
30	-6.402050e-01	3.252750e-01	1.633156e+01	-1.155512e+01
31	-6.858370e-01	3.410080e-01	1.741696e+01	-1.108674e+01
32	-7.310480e-01	3.547530e-01	1.853111e+01	-1.061230e+01
33	-7.752950e-01	3.660640e-01	1.967326e+01	-1.013927e+01
34	-8.178990e-01	3.747050e-01	2.084264e+01	-9.673717e+00
35	-8.580240e-01	3.807230e-01	2.203843e+01	-9.219677e+00
36	-8.947500e-01	3.842150e-01	2.325980e+01	-8.781358e+00
37	-9.270810e-01	3.853200e-01	2.450591e+01	-8.363243e+00
38	-9.540030e-01	3.842160e-01	2.577588e+01	-7.969580e+00
39	-9.752060e-01	3.811320e-01	2.706883e+01	-7.598550e+00
40	-9.909150e-01	3.763400e-01	2.838381e+01	-7.243631e+00
41	-1.001435e+00	3.701590e-01	2.971988e+01	-6.897343e+00
42	-1.007136e+00	3.629420e-01	3.107608e+01	-6.551339e+00
43	-1.008486e+00	3.550450e-01	3.245143e+01	-6.199033e+00
44	-1.006140e+00	3.466920e-01	3.384497e+01	-5.843468e+00
45	-1.000854e+00	3.380910e-01	3.525572e+01	-5.490424e+00
46	-9.934580e-01	3.294620e-01	3.668271e+01	-5.146073e+00
47	-9.848380e-01	3.210260e-01	3.812495e+01	-4.816799e+00
48	-9.756700e-01	3.125710e-01	3.958143e+01	-4.505595e+00
49	-9.663810e-01	3.034100e-01	4.105114e+01	-4.211639e+00
50	-9.574100e-01	2.927970e-01	4.253305e+01	-3.933783e+00
51	-9.492140e-01	2.799510e-01	4.402612e+01	-3.670745e+00
52	-9.420820e-01	2.641160e-01	4.552932e+01	-3.421196e+00
53	-9.356830e-01	2.446820e-01	4.704156e+01	-3.183975e+00
54	-9.295410e-01	2.210600e-01	4.856178e+01	-2.957883e+00
55	-9.231640e-01	1.926590e-01	5.008887e+01	-2.741640e+00
56	-9.160820e-01	1.590090e-01	5.162176e+01	-2.533946e+00
57	-9.081420e-01	1.207950e-01	5.315937e+01	-2.333929e+00
58	-8.993630e-01	7.933300e-02	5.470068e+01	-2.140934e+00
59	-8.897670e-01	3.597500e-02	5.624464e+01	-1.954276e+00
60	-8.793820e-01	-7.975000e-03	5.779019e+01	-1.773280e+00
61	-8.682670e-01	-5.262800e-02	5.933626e+01	-1.598004e+00
62	-8.565110e-01	-9.944600e-02	6.088171e+01	-1.429209e+00
63	-8.442090e-01	-1.499350e-01	6.242541e+01	-1.267668e+00
64	-8.314510e-01	-2.055610e-01	6.396623e+01	-1.114106e+00
65	-8.182870e-01	-2.669530e-01	6.550307e+01	-9.683990e-01
66	-8.047070e-01	-3.337020e-01	6.703486e+01	-8.293770e-01
67	-7.907040e-01	-4.053290e-01	6.856050e+01	-6.958120e-01
68	-7.762680e-01	-4.813390e-01	7.007894e+01	-5.664890e-01
69	-7.614110e-01	-5.609810e-01	7.158914e+01	-4.402670e-01
70	-7.461610e-01	-6.432070e-01	7.309010e+01	-3.160910e-01
71	-7.305500e-01	-7.269770e-01	7.458081e+01	-1.929460e-01
72	-7.146130e-01	-8.113250e-01	7.606030e+01	-6.976300e-02
73	-6.984220e-01	-8.960070e-01	7.752754e+01	5.605900e-02
74	-6.820770e-01	-9.813390e-01	7.898148e+01	1.882550e-01
75	-6.656730e-01	-1.067628e+00	8.042109e+01	3.303680e-01
76	-6.493050e-01	-1.155132e+00	8.184535e+01	4.850500e-01
77	-6.330550e-01	-1.243962e+00	8.325325e+01	6.510020e-01
78	-6.170010e-01	-1.334161e+00	8.464380e+01	8.256080e-01
79	-6.012160e-01	-1.425753e+00	8.601601e+01	1.006353e+00
80	-5.857450e-01	-1.518606e+00	8.736894e+01	1.189343e+00
81	-5.705940e-01	-1.612359e+00	8.870166e+01	1.368550e+00
82	-5.557690e-01	-1.706650e+00	9.001326e+01	1.538247e+00
83	-5.412650e-01	-1.801113e+00	9.130283e+01	1.693271e+00
84	-5.270540e-01	-1.895336e+00	9.256951e+01	1.829096e+00
85	-5.130990e-01	-1.988913e+00	9.381243e+01	1.941783e+00
86	-4.993610e-01	-2.081486e+00	9.503075e+01	2.028362e+00
87	-4.857160e-01	-2.172970e+00	9.622362e+01	2.090662e+00
88	-4.720030e-01	-2.263422e+00	9.739020e+01	2.133082e+00
89	-4.580940e-01	-2.352875e+00	9.852966e+01	2.159638e+00
90	-4.440310e-01	-2.441309e+00	9.964121e+01	2.173242e+00
91	-4.299690e-01	-2.528659e+00	1.007241e+02	2.175988e+00
92	-4.160660e-01	-2.614849e+00	1.017775e+02	2.169762e+00
93	-4.026920e-01	-2.699795e+00	1.028007e+02	2.156070e+00
94	-3.902990e-01	-2.783407e+00	1.037931e+02	2.136159e+00
95	-3.791940e-01	-2.865573e+00	1.047539e+02	2.111133e+00
96	-3.692410e-01	-2.946136e+00	1.056825e+02	2.081807e+00
97	-3.601840e-01	-3.024925e+00	1.065782e+02	2.048876e+00
98	-3.516270e-01	-3.101751e+00	1.074404e+02	2.012856e+00
99	-3.428870e-01	-3.176392e+00	1.082685e+02	1.973969e+00
100	-3.334000e-01	-3.248637e+00	1.090620e+02	1.932469e+00
101	-3.228230e-01	-3.318302e+00	1.098203e+02	1.888722e+00
102	-3.109790e-01	-3.385221e+00	1.105429e+02	1.843166e+00
103	-2.977870e-01	-3.449244e+00	1.112292e+02	1.796257e+00
104	-2.832490e-01	-3.510228e+00	1.118788e+02	1.748463e+00
105	-2.674520e-01	-3.568047e+00	1.124913e+02	1.700268e+00
106	-2.505640e-01	-3.622585e+00	1.130662e+02	1.652174e+00
107	-2.328140e-01	-3.673740e+00	1.136032e+02	1.604685e+00
108	-2.144780e-01	-3.721421e+00	1.141018e+02	1.558304e+00
109	-1.958690e-01	-3.765545e+00	1.145617e+02	1.513524e+00
110	-1.773240e-01	-3.806042e+00	1.149826e+02	1.470825e+00
111	-1.591910e-01	-3.842850e+00	1.153643e+02	1.430663e+00
112	-1.418210e-01	-3.875913e+00	1.157064e+02	1.393470e+00
113	-1.255570e-01	-3.905186e+00	1.160088e+02	1.359648e+00
114	-1.107240e-01	-3.930629e+00	1.162713e+02	1.329559e+00
115	-9.762300e-02	-3.952210e+00	1.164937e+02	1.303529e+00
116	-8.651700e-02	-3.969902e+00	1.166758e+02	1.281838e+00
117	-7.763500e-02	-3.983684e+00	1.168176e+02	1.264720e+00
118	-7.115700e-02	-3.993539e+00	1.169189e+02	1.252359e+00
119	-6.721600e-02	-3.999457e+00	1.169797e+02	1.244889e+00
120	-6.589400e-02	-4.001430e+00	1.170000e+02	1.242390e+00
